profile,E_Pa,F_N,contact_fraction,scale,lambda,contact_y_um,contact_x_um,free_tip_y_um,linear_contact_y_um,contact_y_over_loaded_length,linear_y_over_loaded_length,tip_angle_deg,max_surface_normal_MPa,max_bending_MPa,max_linear_elastic_strain_diagnostic,strain_above_diagnostic_level,max_stress_position_fraction_of_arm,moment_integral_error,boundary_error,max_bvp_residual,monotone_bend,root_moment_N_m
uniform,100000000,1e-06,0.5,1,0.028647889756541145,0.41107942608366915,149.999324053076,1.0276977712999242,0.4110826017360816,0.0027405295072244614,0.002740550678240544,0.2355315217030012,0.07488576353059737,0.07488576353059737,0.0007488576353059736,False,0.0,2.220446049250313e-16,1.788685128553241e-24,4.751835469299654e-13,True,1.4999932405307601e-10
uniform,100000000,1e-05,0.5,1,0.28647889756541145,4.107654893462646,149.93249127297543,10.268344837125424,4.110826017360816,0.027384365956417644,0.027405506782405442,2.3538723054562127,0.7485239788846332,0.7485239788846332,0.0074852397888463314,False,0.0,3.3306690738754696e-16,2.718258169388011e-23,5.195607086599986e-10,True,1.4993249127297544e-09
uniform,100000000,3e-05,0.5,1,0.8594366926962345,12.247831162524111,149.39858502516125,30.59850687799944,12.33247805208245,0.08165220775016074,0.08221652034721634,7.027045138170155,2.237575505215214,2.237575505215214,0.02237575505215214,True,0.0,2.220446049250313e-16,9.528570031810738e-25,4.304698754491743e-10,True,4.4819575507548384e-09
uniform,100000000,0.0001,0.5,1,2.864788975654115,38.323239504498744,143.98804161448462,95.1418602673111,41.108260173608166,0.255488263363325,0.2740550678240545,22.258802438169326,7.188468683872705,7.188468683872705,0.07188468683872705,True,0.0,3.3306690738754696e-16,5.290688628452529e-25,4.9215653844590404e-09,True,1.4398804161448461e-08
uniform,100000000,1e-06,1,1,0.11459155902616458,3.2882544183356543,299.97837387229833,3.2882544183356543,3.2886608138886526,0.01096084806111885,0.010962202712962176,0.9420385409891735,0.14976140533903554,0.14976140533903554,0.0014976140533903553,False,0.0,2.220446049250313e-16,3.1638478828974864e-23,1.336383207223287e-11,True,2.999783738722983e-10
uniform,100000000,1e-05,1,1,1.1459155902616458,32.4892531558831,297.8803432880646,32.4892531558831,32.88660813888653,0.10829751051961034,0.10962202712962177,9.329832974346958,1.4871398313761754,1.4871398313761754,0.014871398313761754,False,0.0,2.7755575615628914e-16,1.0785967009560255e-24,7.6828231534304e-10,True,2.9788034328806464e-09
uniform,100000000,3e-05,1,1,3.437746770784938,89.5122467154896,283.45596779313485,89.5122467154896,98.6598244166596,0.2983741557182987,0.32886608138886536,26.128870483410388,4.245382446120035,4.245382446120035,0.04245382446120035,True,0.0,2.220446049250313e-16,5.815567001983937e-25,7.1262500833013335e-09,True,8.503679033794047e-09
uniform,100000000,0.0001,1,1,11.45915590261646,187.7280735284152,216.65489516018036,187.7280735284152,328.8660813888653,0.6257602450947174,1.096220271296218,59.04790981622688,10.816293572743552,10.816293572743552,0.10816293572743552,True,0.0,2.498001805406602e-16,7.067335430115385e-24,7.183491668173442e-08,True,2.166548951601804e-08
uniform,300000000,1e-06,0.5,1,0.009549296585513714,0.13702741629376256,149.99992489392716,0.34256851132985616,0.1370275339120272,0.0009135161086250839,0.0009135168927468482,0.07851093964980389,0.07488606349478842,0.07488606349478842,0.00024962021164929475,False,0.0,2.220446049250313e-16,2.224855536826275e-25,5.285287397383811e-14,True,1.4999992489392717e-10
uniform,300000000,1e-05,0.5,1,0.09549296585513715,1.370157739521036,149.9924904556101,3.4253649504886257,1.3702753391202722,0.00913438493014024,0.009135168927468481,0.7850558922046994,0.7488235192079762,0.7488235192079762,0.0024960783973599207,False,0.0,3.3306690738754696e-16,1.142743323718737e-24,6.450975108136307e-12,True,1.4999249045561011e-09
uniform,300000000,3e-05,0.5,1,0.2864788975654115,4.107654893462643,149.93249127297543,10.268344837125415,4.110826017360816,0.02738436595641762,0.027405506782405442,2.353872305456211,2.2455719366538993,2.2455719366538993,0.0074852397888463314,False,0.0,3.3306690738754696e-16,1.6596070147116094e-23,5.195607301348496e-10,True,4.497974738189263e-09
uniform,300000000,0.0001,0.5,1,0.9549296585513717,13.586985877208932,149.25948702277503,33.93867556496153,13.702753391202723,0.09057990584805954,0.09135168927468483,7.7978231844669095,7.451640679347836,7.451640679347836,0.02483880226449279,True,0.0,3.3306690738754696e-16,3.191405539296526e-24,5.321089381683044e-10,True,1.4925948702277502e-08
uniform,300000000,1e-06,1,1,0.03819718634205486,1.0962052165204035,299.99759665721183,1.0962052165204035,1.0962202712962177,0.0036540173884013457,0.0036540675709873928,0.31404051551639317,0.14977100213511796,0.14977100213511796,0.0004992366737837265,False,0.0,2.220446049250313e-16,1.4011120102789754e-24,8.447992864755513e-13,True,2.999975966572119e-10
uniform,300000000,1e-05,1,1,0.3819718634205486,10.947186050701244,299.7602083964939,10.947186050701244,10.962202712962178,0.03649062016900415,0.036540675709873925,3.1369884453744974,1.4965248826001025,1.4965248826001025,0.004988416275333675,False,0.0,3.3306690738754696e-16,5.018358791152341e-22,1.6349163047657683e-09,True,2.9976020839649395e-09
uniform,300000000,3e-05,1,1,1.145915590261646,32.489253155883105,297.8803432880646,32.489253155883105,32.88660813888653,0.10829751051961035,0.10962202712962177,9.32983297434696,4.461419494128524,4.461419494128524,0.014871398313761748,False,0.0,2.220446049250313e-16,1.283720643599887e-24,7.682823314010638e-10,True,8.936410298641936e-09
uniform,300000000,0.0001,1,1,3.8197186342054867,97.52692992187369,280.23681472359,97.52692992187369,109.62202712962178,0.32508976640624565,0.3654067570987393,28.572657727329528,13.990561605819606,13.990561605819606,0.046635205352732016,True,0.0,2.220446049250313e-16,9.139900220071687e-25,8.819544058928409e-09,True,2.8023681472358998e-08
uniform,1000000000,1e-06,0.5,1,0.0028647889756541144,0.04110825703239959,149.99999329083388,0.10277064176382393,0.04110826017360816,0.000274055046882664,0.0002740550678240544,0.02355329666219117,0.07488609764130619,0.07488609764130619,7.488609764130619e-05,False,0.0,2.7755575615628914e-16,1.1179345978654169e-21,4.878563352876455e-10,True,1.499999932908339e-10
uniform,1000000000,1e-05,0.5,1,0.02864788975654115,0.41107942608366926,149.999324053076,1.0276977712999242,0.4110826017360816,0.002740529507224462,0.002740550678240544,0.23553152170300123,0.7488576353059737,0.7488576353059737,0.0007488576353059738,False,0.0,2.220446049250313e-16,8.087289846527233e-25,4.751835445035117e-13,True,1.4999932405307603e-09
uniform,1000000000,3e-05,0.5,1,0.08594366926962345,1.2331620724893573,149.99391710383725,3.082883748980149,1.233247805208245,0.008221080483262384,0.008221652034721633,0.7065595435537179,2.246491924848572,2.246491924848572,0.0022464919248485725,False,0.0,3.3306690738754696e-16,1.4962754535037175e-23,4.277183842682492e-12,True,4.4998175131151185e-09
uniform,1000000000,0.0001,0.5,1,0.2864788975654115,4.107654893462643,149.93249127297543,10.268344837125415,4.110826017360817,0.02738436595641762,0.02740550678240545,2.353872305456211,7.485239788846331,7.485239788846331,0.0074852397888463314,False,0.0,3.3306690738754696e-16,1.6596070147116094e-23,5.195607301348496e-10,True,1.4993249127297545e-08
uniform,1000000000,1e-06,1,1,0.011459155902616458,0.32886567490042956,299.9997836946463,0.32886567490042956,0.3288660813888653,0.0010962189163347654,0.0010962202712962177,0.0942130990400281,0.14977209399315916,0.14977209399315916,0.00014977209399315915,False,0.0,2.220446049250313e-16,5.324545764435119e-25,7.603344589546912e-14,True,2.999997836946463e-10
uniform,1000000000,1e-05,1,1,0.1145915590261646,3.2882544183356543,299.97837387229833,3.2882544183356543,3.2886608138886526,0.010960848061118848,0.010962202712962176,0.9420385409891735,1.4976140533903552,1.4976140533903552,0.0014976140533903553,False,0.0,2.220446049250313e-16,3.147436880961044e-23,1.3363836999500004e-11,True,2.999783738722983e-09
uniform,1000000000,3e-05,1,1,0.3437746770784938,9.855029975779882,299.8056846396829,9.855029975779882,9.86598244166596,0.032850099919266275,0.03288660813888653,2.8238786583036686,4.490255755508334,4.490255755508334,0.004490255755508333,False,0.0,3.885780586188048e-16,6.43785133931988e-23,1.0747016313430612e-09,True,8.994170539190486e-09
uniform,1000000000,0.0001,1,1,1.145915590261646,32.489253155883105,297.8803432880646,32.489253155883105,32.88660813888654,0.10829751051961035,0.1096220271296218,9.32983297434696,14.87139831376175,14.87139831376175,0.01487139831376175,False,0.0,2.220446049250313e-16,1.283720643599887e-24,7.682823314010638e-10,True,2.9788034328806457e-08
quadratic_a1,100000000,1e-06,0.5,1,0.028647889756541145,0.15886394516392463,149.9998874985002,0.4478027381668934,0.158864181302663,0.0010590929677594977,0.0010590945420177536,0.11036655742990846,0.026175492126568427,0.026174760211892585,0.0002617549212656843,False,0.1615,2.220446049250313e-16,1.6044223707969802e-25,2.3011791942811673e-10,True,1.4999988749850016e-10
quadratic_a1,100000000,1e-05,0.5,1,0.28647889756541145,1.588405711462034,149.98875267229533,4.477255632344266,1.5886418130266302,0.010589371409746895,0.010590945420177536,1.103527612657198,0.26179300630052216,0.26171976231611566,0.0026179300630052218,False,0.16175,2.220446049250313e-16,3.417129833631412e-23,2.2809344592482077e-09,True,1.4998875267229532e-09
quadratic_a1,100000000,3e-05,0.5,1,0.8594366926962345,4.759565302535067,149.89897869316516,13.41310846972398,4.765925439079892,0.03173043535023378,0.031772836260532615,3.3072462542154657,0.7851451353334138,0.7844861755199672,0.007851451353334139,False,0.162,2.220446049250313e-16,2.722929098671541e-23,6.970292338699751e-09,True,4.496969360794956e-09
quadratic_a1,100000000,0.0001,0.5,1,2.864788975654115,15.656811208120422,148.90259671164972,44.02331642676182,15.886418130266305,0.10437874138746948,0.10590945420177537,10.900851410350729,2.5972968116350748,2.590133530431102,0.025972968116350748,True,0.1615,2.220446049250313e-16,4.2117539706061694e-24,2.178881628557516e-08,True,1.4890259671164975e-08
quadratic_a1,100000000,1e-06,1,1,0.11459155902616458,2.403435559277824,299.9855911677024,2.403435559277824,2.403697243913528,0.008011451864259413,0.008012324146378426,0.9573948183263583,0.09886556229305374,0.09884639207487374,0.0009886556229305374,False,0.553,3.3306690738754696e-16,5.2788050445962674e-24,9.141457755770164e-09,True,2.999855911677024e-10
quadratic_a1,100000000,1e-05,1,1,1.1459155902616458,23.780708725085542,298.5853575052022,23.780708725085542,24.036972439135276,0.07926902908361848,0.08012324146378426,9.486213969051207,0.9811428590880834,0.9792521129807646,0.009811428590880834,False,0.552,2.220446049250313e-16,4.336001575678974e-25,8.909971957808122e-08,True,2.985853575052022e-09
quadratic_a1,100000000,3e-05,1,1,3.437746770784938,66.1517651283678,288.8351429528687,66.1517651283678,72.11091731740585,0.22050588376122604,0.24036972439135285,26.6401614350279,2.7632848887278776,2.7479495969047973,0.027632848887278776,True,0.543,2.2898349882893854e-16,5.434270857148592e-28,9.625565054686633e-08,True,8.665054288586062e-09
quadratic_a1,100000000,0.0001,1,1,11.45915590261646,145.04352304162597,241.06171197659378,145.04352304162597,240.36972439135283,0.48347841013875337,0.8012324146378428,60.56867188832616,6.416148124741884,6.326921467090984,0.06416148124741884,True,0.47100000000000003,3.3306690738754696e-16,1.1089944656255398e-25,9.971321899515839e-08,True,2.4106171197659373e-08
quadratic_a1,300000000,1e-06,0.5,1,0.009549296585513714,0.052954718458980116,149.99998759300018,0.14926781063067773,0.05295472710088767,0.0003530314563932008,0.00035303151400591787,0.03678889381648218,0.026175029209805075,0.026174785238033876,8.725009736601691e-05,False,0.1615,2.220446049250313e-16,3.461750863534421e-21,1.1927583708243613e-09,True,1.4999998759300017e-10
quadratic_a1,300000000,1e-05,0.5,1,0.09549296585513715,0.5295385243620748,149.99875001537245,1.4926495132884698,0.5295472710088768,0.003530256829080499,0.0035303151400591782,0.36788382687426546,0.26176915503958276,0.26174475812531944,0.0008725638501319425,False,0.1615,3.3306690738754696e-16,9.986213540628232e-25,7.652543619052497e-10,True,1.4999875001537244e-09
quadratic_a1,300000000,3e-05,0.5,1,0.2864788975654115,1.588405711462035,149.98875267229533,4.477255632344268,1.5886418130266302,0.0105893714097469,0.010590945420177536,1.1035276126571982,0.7853790189015664,0.7851592869483469,0.0026179300630052213,False,0.16175,2.220446049250313e-16,2.349664810869277e-23,2.2809344580159927e-09,True,4.49966258016886e-09
quadratic_a1,300000000,0.0001,0.5,1,0.9549296585513717,5.286753513615754,149.87534878349732,14.897999655412972,5.295472710088768,0.03524502342410503,0.03530315140059179,3.6737423498328607,2.616803317370521,2.614363485968608,0.008722677724568403,False,0.162,2.220446049250313e-16,3.4497037957392274e-22,7.963815824049939e-09,True,1.4987534878349733e-08
quadratic_a1,300000000,1e-06,1,1,0.03819718634205486,0.8012227207782584,299.99839875049196,0.8012227207782584,0.8012324146378426,0.0026707424025941948,0.0026707747154594754,0.31915838103038746,0.09886122505942622,0.09885483450202544,0.0003295374168647541,False,0.553,2.220446049250313e-16,1.543011585004441e-25,3.048713527987363e-09,True,2.99998398750492e-10
quadratic_a1,300000000,1e-05,1,1,0.3819718634205486,8.002653090893,299.840206040098,8.002653090893,8.012324146378427,0.026675510302976668,0.026707747154594758,3.1882770316383957,0.9881441023633101,0.9875062125585873,0.003293813674544367,False,0.553,2.7755575615628914e-16,1.931035570494962e-23,3.0412523020502875e-08,True,2.9984020604009807e-09
quadratic_a1,300000000,3e-05,1,1,1.145915590261646,23.780708725085546,298.5853575052022,23.780708725085546,24.036972439135276,0.07926902908361849,0.08012324146378426,9.48621396905121,2.9434285772642497,2.9377563389422936,0.009811428590880833,False,0.552,2.220446049250313e-16,1.2906108015780837e-25,8.909971958185528e-08,True,8.957560725156065e-09
quadratic_a1,300000000,0.0001,1,1,3.8197186342054867,72.22739290251519,286.63074959720507,72.22739290251519,80.12324146378428,0.24075797634171733,0.26707747154594763,29.147371084497077,9.074407030303828,9.019001992625574,0.030248023434346096,True,0.5405,2.220446049250313e-16,3.9513056666388955e-27,9.393624008538216e-08,True,2.8663074959720507e-08
quadratic_a1,1000000000,1e-06,0.5,1,0.0028647889756541144,0.015886417899691765,149.99999888336288,0.0447803510202167,0.0158864181302663,0.00010590945266461179,0.00010590945420177534,0.011036669543847973,0.026174861252452494,0.026174788060913935,2.6174861252452494e-05,False,0.1615,3.3306690738754696e-16,5.482139509695191e-22,1.094344296604427e-10,True,1.4999999888336289e-10
quadratic_a1,1000000000,1e-05,0.5,1,0.02864788975654115,0.15886394516392466,149.9998874985002,0.4478027381668935,0.158864181302663,0.001059092967759498,0.0010590945420177536,0.11036655742990849,0.2617549212656843,0.2617476021189259,0.0002617549212656843,False,0.1615,2.220446049250313e-16,1.5167347892555813e-25,2.3011791949468598e-10,True,1.499998874985002e-09
quadratic_a1,1000000000,3e-05,0.5,1,0.08594366926962345,0.47658616758105626,149.99898750703375,1.3433895002829046,0.47659254390798905,0.003177241117207042,0.003177283626053261,0.331096326958842,0.7853019275467824,0.7852360557420766,0.0007853019275467824,False,0.1615,4.440892098500626e-16,5.462076771066954e-25,6.889608008000832e-10,True,4.499969625211012e-09
quadratic_a1,1000000000,0.0001,0.5,1,0.2864788975654115,1.588405711462035,149.98875267229533,4.477255632344268,1.5886418130266304,0.0105893714097469,0.010590945420177536,1.1035276126571982,2.6179300630052214,2.617197623161156,0.0026179300630052213,False,0.16175,2.220446049250313e-16,2.349664810869277e-23,2.2809344580159927e-09,True,1.4998875267229532e-08
quadratic_a1,1000000000,1e-06,1,1,0.011459155902616458,0.24036946265539272,299.9998558847985,0.24036946265539272,0.24036972439135276,0.0008012315421846425,0.0008012324146378426,0.09574842818250141,0.09885771219694302,0.09885579501318008,9.885771219694301e-05,False,0.553,2.220446049250313e-16,5.954703367558568e-26,9.147362463269979e-10,True,2.9999985588479847e-10
quadratic_a1,1000000000,1e-05,1,1,0.1145915590261646,2.403435559277825,299.9855911677024,2.403435559277825,2.403697243913528,0.008011451864259417,0.008012324146378426,0.9573948183263588,0.9886556229305373,0.9884639207487376,0.0009886556229305374,False,0.553,3.3306690738754696e-16,2.4640132468605776e-24,9.14145775596856e-09,True,2.999855911677024e-09
quadratic_a1,1000000000,3e-05,1,1,0.3437746770784938,7.204038347299627,299.87051555220205,7.204038347299627,7.211091731740584,0.024013461157665426,0.02403697243913528,2.870019496453769,2.9648403860697905,2.963117536209722,0.0029648403860697906,False,0.553,3.3306690738754696e-16,3.550922709123595e-23,2.7370465478981944e-08,True,8.996115466566063e-09
quadratic_a1,1000000000,0.0001,1,1,1.145915590261646,23.780708725085546,298.5853575052022,23.780708725085546,24.036972439135283,0.07926902908361849,0.08012324146378429,9.48621396905121,9.811428590880833,9.792521129807648,0.009811428590880834,False,0.552,2.220446049250313e-16,1.2906108015780837e-25,8.909971958185528e-08,True,2.985853575052022e-08
quadratic_a5,100000000,1e-06,0.5,1,0.028647889756541145,0.0931403184979226,149.99995420412728,0.3139299921935178,0.093140388463773,0.0006209354566528174,0.0006209359230918201,0.08433547353881725,0.021289951993884046,0.02128858010615085,0.00021289951993884045,False,0.3395,3.3306690738754696e-16,1.4943424317242135e-26,5.567576466791207e-09,True,1.4999995420412725e-10
quadratic_a5,100000000,1e-05,0.5,1,0.28647889756541145,0.9313337435443387,149.99542101765638,3.1389998950232485,0.9314038846377302,0.006208891623628926,0.0062093592309182015,0.8432968003845872,0.2130068631956738,0.21286968341260365,0.002130068631956738,False,0.3395,2.220446049250313e-16,3.482155870447888e-24,5.560284123455592e-08,True,1.499954210176564e-09
quadratic_a5,100000000,3e-05,0.5,1,0.8594366926962345,2.7923201250176493,149.9588331119019,9.409737141316747,2.7942116539131905,0.018615467500117663,0.018628077692754607,2.5284877318652157,0.6394543975710653,0.6382188185767942,0.006394543975710652,False,0.34,2.220446049250313e-16,3.3116382401731184e-27,9.47349527721648e-08,True,4.498764993357057e-09
quadratic_a5,100000000,0.0001,0.5,1,2.864788975654115,9.244944896619547,149.54804801754352,31.094854714595943,9.314038846377303,0.061632965977463657,0.06209359230918202,8.375851458822595,2.126468919997274,2.1128242040762664,0.02126468919997274,True,0.3405,2.220446049250313e-16,4.936841189629771e-28,9.631931555641628e-08,True,1.4954804801754352e-08
quadratic_a5,100000000,1e-06,1,1,0.11459155902616458,7.359668856287718,299.76817095618145,7.359668856287718,7.383123123954453,0.024532229520959063,0.024610410413181513,5.429966947770337,0.4932865224393714,0.4926823087963704,0.0049328652243937135,False,0.8,2.220446049250313e-16,8.118678115583565e-28,9.864523777729412e-08,True,2.9976817095618145e-10
quadratic_a5,100000000,1e-05,1,1,1.1459155902616458,59.07520004036751,284.51534050020007,59.07520004036751,73.83123123954454,0.19691733346789173,0.24610410413181516,44.05388180955106,3.967559598849123,3.923554857184228,0.03967559598849123,True,0.786,2.220446049250313e-16,3.729660211582085e-26,9.992111956530666e-08,True,2.845153405002001e-09
quadratic_a5,100000000,3e-05,1,1,3.437746770784938,102.15354866633915,251.66654292050842,102.15354866633915,221.49369371863366,0.3405118288877972,0.7383123123954456,74.44687120922491,6.657505923716922,6.499405870743538,0.06657505923716922,True,0.732,2.3592239273284576e-16,1.3138632450851503e-27,9.717658342210269e-08,True,7.549996287615254e-09
quadratic_a5,100000000,0.0001,1,1,11.45915590261646,143.27485349272047,209.4036807263782,143.27485349272047,738.3123123954456,0.4775828449757349,2.461041041318152,88.523659931567,9.072523937509956,8.728717170505332,0.09072523937509956,True,0.618,2.220446049250313e-16,7.992223158771778e-26,9.875809566367775e-08,True,2.0940368072637822e-08
quadratic_a5,300000000,1e-06,0.5,1,0.009549296585513714,0.031046793647123618,149.99999494949503,0.10464342061139031,0.031046796154591005,0.0002069786243141575,0.0002069786410306067,0.028111841870910006,0.021289051889390204,0.02128859459320983,7.096350629796734e-05,False,0.3395,2.220446049250313e-16,5.1388595554856844e-23,1.9817802283684187e-09,True,1.4999999494949502e-10
quadratic_a5,300000000,1e-05,0.5,1,0.09549296585513715,0.31046536392887547,149.99949116383556,1.0464230916457133,0.31046796154591005,0.00206976909285917,0.002069786410306067,0.28111627252962007,0.21292988400361856,0.21288415471861605,0.0007097662800120618,False,0.3395,2.220446049250313e-16,1.5463122780226042e-25,1.8552401898935244e-08,True,1.4999949116383558e-09
quadratic_a5,300000000,3e-05,0.5,1,0.2864788975654115,0.931333743544339,149.99542101765638,3.138999895023249,0.9314038846377302,0.0062088916236289265,0.0062093592309182015,0.8432968003845874,0.6390205895870213,0.6386090502378109,0.002130068631956738,False,0.3395,2.220446049250313e-16,5.053268974520679e-25,5.560284123467523e-08,True,4.499862630529692e-09
quadratic_a5,300000000,0.0001,0.5,1,0.9549296585513717,3.1020857659240404,149.94919097369927,10.453137605183166,3.1046796154591005,0.020680571772826936,0.020697864103060674,2.809020133190511,2.131629868374837,2.1270533984487634,0.007105432894582791,False,0.34,2.220446049250313e-16,1.54246411817733e-27,9.893163166444719e-08,True,1.4994919097369928e-08
quadratic_a5,300000000,1e-06,1,1,0.03819718634205486,2.460167224638635,299.97410890173677,2.460167224638635,2.4610410413181514,0.008200557415462119,0.008203470137727173,1.8147402899247391,0.49430301049020064,0.49410110827263837,0.0016476767016340022,False,0.8,3.3306690738754696e-16,5.406119451386137e-29,9.803285312213844e-08,True,2.999741089017367e-10
quadratic_a5,300000000,1e-05,1,1,0.3819718634205486,23.795382284002986,297.56290065749613,23.795382284002986,24.610410413181516,0.07931794094667663,0.08203470137727172,17.593262123602354,4.7952470344823865,4.775928941149084,0.015984156781607955,False,0.7985,2.220446049250313e-16,1.0710157280123661e-26,9.992512891145854e-08,True,2.975629006574962e-09
quadratic_a5,300000000,3e-05,1,1,1.145915590261646,59.07520004036751,284.51534050020007,59.07520004036751,73.83123123954454,0.19691733346789173,0.24610410413181516,44.05388180955106,11.902678796547368,11.77066457155268,0.03967559598849123,True,0.786,2.220446049250313e-16,3.290253786610496e-26,9.992111957437801e-08,True,8.535460215006004e-09
quadratic_a5,300000000,0.0001,1,1,3.8197186342054867,105.94611727050736,247.97752637773354,105.94611727050736,246.10410413181518,0.35315372423502456,0.8203470137727173,76.59165331196265,20.621486196954066,20.104923750387954,0.06873828732318023,True,0.7235,3.3306690738754696e-16,2.1466515164052493e-26,9.924263384857084e-08,True,2.4797752637773354e-08
quadratic_a5,1000000000,1e-06,0.5,1,0.0028647889756541144,0.009314038795764952,149.99999954545007,0.03139302922892235,0.009314038846377302,6.209359197176635e-05,6.209359230918201e-05,0.008433553148650965,0.02128873341616839,0.021288596227305147,2.128873341616839e-05,False,0.3395,2.220446049250313e-16,1.093946360101379e-22,5.603189003452976e-10,True,1.4999999954545006e-10
quadratic_a5,1000000000,1e-05,0.5,1,0.02864788975654115,0.0931403184979226,149.99995420412728,0.31392999219351786,0.093140388463773,0.0006209354566528174,0.0006209359230918201,0.08433547353881726,0.21289951993884043,0.21288580106150848,0.00021289951993884045,False,0.3395,3.3306690738754696e-16,2.1360792092278777e-26,5.5675764668035434e-09,True,1.4999995420412727e-09
quadratic_a5,1000000000,3e-05,0.5,1,0.08594366926962345,0.2794192718293974,149.99958784154566,0.9417827021027931,0.27942116539131906,0.0018627951455293162,0.0018628077692754606,0.2530050159477354,0.6387769646119462,0.6386534953698794,0.0006387769646119463,False,0.3395,3.3306690738754696e-16,3.0217014816722647e-25,1.669796157729686e-08,True,4.49998763524637e-09
quadratic_a5,1000000000,0.0001,0.5,1,0.2864788975654115,0.931333743544339,149.99542101765638,3.138999895023249,0.9314038846377303,0.0062088916236289265,0.006209359230918202,0.8432968003845874,2.1300686319567377,2.128696834126036,0.0021300686319567375,False,0.3395,2.220446049250313e-16,5.053268974520679e-25,5.560284123467523e-08,True,1.499954210176564e-08
quadratic_a5,1000000000,1e-06,1,1,0.011459155902616458,0.7382887054229875,299.9976684361424,0.7382887054229875,0.7383123123954454,0.0024609623514099586,0.0024610410413181513,0.5445852199725184,0.49432406261355594,0.4942634748624628,0.0004943240626135559,False,0.8,3.3306690738754696e-16,5.615719486120653e-32,9.432754685258384e-08,True,2.9999766843614237e-10
quadratic_a5,1000000000,1e-05,1,1,0.1145915590261646,7.359668856287719,299.76817095618145,7.359668856287719,7.383123123954453,0.024532229520959067,0.024610410413181513,5.429966947770337,4.932865224393715,4.926823087963705,0.004932865224393715,False,0.8,2.220446049250313e-16,8.61081588132007e-27,9.864523777719932e-08,True,2.997681709561815e-09
quadratic_a5,1000000000,3e-05,1,1,0.3437746770784938,21.54754221465364,298.0038174643837,21.54754221465364,22.14936937186336,0.07182514071551213,0.07383123123954455,15.92481253862054,14.470457402190224,14.41786456908754,0.014470457402190223,False,0.799,2.220446049250313e-16,3.3403796282353224e-26,9.913988298969858e-08,True,8.94011452393151e-09
quadratic_a5,1000000000,0.0001,1,1,1.145915590261646,59.07520004036751,284.51534050020007,59.07520004036751,73.83123123954455,0.19691733346789173,0.2461041041318152,44.05388180955106,39.675595988491224,39.235548571842266,0.03967559598849122,True,0.786,2.220446049250313e-16,3.290253786610496e-26,9.992111957437801e-08,True,2.8451534050020008e-08
volume_optimal_clipped,100000000,1e-06,0.5,1,0.028647889756541145,0.19680184733361578,149.99983901561203,0.5161678140324286,0.19680222920666335,0.0013120123155574387,0.0013120148613777558,0.12198890557770337,0.03709554870415602,0.03709554870415602,0.0003709554870415602,False,0.0,2.220446049250313e-16,5.58666976782635e-25,2.575349044313084e-10,True,1.4999983901561202e-10
volume_optimal_clipped,100000000,1e-05,0.5,1,0.28647889756541145,1.9676405422348144,149.98390675690516,5.160556896672128,1.9680222920666335,0.013117603614898762,0.013120148613777558,1.2196963285611075,0.3709160859406853,0.3709160859406853,0.003709160859406853,False,0.0,2.220446049250313e-16,5.251042935043377e-24,2.5710934619131238e-09,True,1.4998390675690517e-09
volume_optimal_clipped,100000000,3e-05,0.5,1,0.8594366926962345,5.893789802368362,149.85553724041912,15.454582035644833,5.904066876199902,0.03929193201578909,0.039360445841332685,3.654430901204881,1.111795869269737,1.111795869269737,0.01111795869269737,False,0.0,2.220446049250313e-16,4.646999587038668e-22,8.20694225170805e-09,True,4.4956661172125735e-09
volume_optimal_clipped,100000000,0.0001,0.5,1,2.864788975654115,19.3117727514437,148.44054664407957,50.52531747029779,19.68022292066634,0.12874515167629136,0.1312014861377756,12.010462269276644,3.670992958288362,3.670992958288362,0.036709929582883626,True,0.0,2.220446049250313e-16,6.5501932636219036e-24,2.5236774188419293e-08,True,1.4844054664407956e-08
volume_optimal_clipped,100000000,1e-06,1,1,0.11459155902616458,2.25280856445543,299.98825520978636,2.25280856445543,2.252994533113421,0.0075093618815181,0.007509981777044737,0.860040922728387,0.07422443131646868,0.0741882724997537,0.0007422443131646868,False,0.8055,3.3306690738754696e-16,4.126212421407756e-24,8.724372081245761e-09,True,2.999882552097863e-10
volume_optimal_clipped,100000000,1e-05,1,1,1.1459155902616458,22.34694946987693,298.84190477229333,22.34694946987693,22.52994533113421,0.07448983156625644,0.07509981777044737,8.538619884232299,0.739047755389228,0.739047755389228,0.00739047755389228,False,0.0,2.220446049250313e-16,7.692670698078324e-25,7.301814581690835e-08,True,2.988419047722933e-09
volume_optimal_clipped,100000000,3e-05,1,1,3.437746770784938,63.198719053709084,290.59687705832033,63.198719053709084,67.58983599340264,0.210662396845697,0.22529945331134216,24.293322488086687,2.1559724350911984,2.1559724350911984,0.021559724350911986,True,0.0,2.498001805406602e-16,3.162291919617497e-25,9.723516038077675e-08,True,8.71790631174961e-09
volume_optimal_clipped,100000000,0.0001,1,1,11.45915590261646,146.79044434336873,244.93226840906198,146.79044434336873,225.29945331134215,0.48930148114456246,0.7509981777044739,57.85737226484651,6.057271095499049,6.057271095499049,0.06057271095499049,True,0.0,2.220446049250313e-16,6.623710033733487e-26,9.98456845114757e-08,True,2.4493226840906195e-08
volume_optimal_clipped,300000000,1e-06,0.5,1,0.009549296585513714,0.06560072908371824,149.99998224616164,0.17205627400945844,0.06560074306888779,0.000437338193891455,0.00043733828712591864,0.040663026280255844,0.03709558412563289,0.03709558412563289,0.00012365194708544296,False,0.0,2.7755575615628914e-16,9.917895544510802e-22,1.4569414965985818e-09,True,1.499999822461616e-10
volume_optimal_clipped,300000000,1e-05,0.5,1,0.09549296585513715,0.6559932872354424,149.9982113435617,1.7205211953590636,0.6560074306888779,0.004373288581569617,0.004373382871259187,0.40662312206171264,0.37095146174471905,0.37095146174471905,0.001236504872482397,False,0.0,2.220446049250313e-16,3.809441423477568e-24,8.5806219330155e-10,True,1.4999821134356175e-09
volume_optimal_clipped,300000000,3e-05,0.5,1,0.2864788975654115,1.9676405422348149,149.98390675690516,5.16055689667213,1.9680222920666335,0.013117603614898768,0.013120148613777558,1.2196963285611082,1.1127482578220558,1.1127482578220558,0.003709160859406853,False,0.0,2.220446049250313e-16,1.3712600460189873e-24,2.571093462600998e-09,True,4.499517202707155e-09
volume_optimal_clipped,300000000,0.0001,0.5,1,0.9549296585513717,6.545987685493143,149.82177302507287,17.163845673255288,6.5600743068887795,0.043639917903287626,0.04373382871259187,4.059117607331202,3.7051512286064185,3.7051512286064185,0.01235050409535473,False,0.0,2.220446049250313e-16,2.8355728873132662e-22,9.59249717477048e-09,True,1.4982177302507287e-08
volume_optimal_clipped,300000000,1e-06,1,1,0.03819718634205486,0.7509912889443978,299.9986948568298,0.7509912889443978,0.7509981777044736,0.0025033042964813265,0.0025033272590149125,0.28669908261834864,0.07420394914795021,0.07419085426542692,0.00024734649715983404,False,0.8055,3.3306690738754696e-16,1.7632789752075915e-24,2.9502269517936e-09,True,2.999986948568298e-10
volume_optimal_clipped,300000000,1e-05,1,1,0.3819718634205486,7.503105490784138,299.8696913032921,7.503105490784138,7.509981777044738,0.025010351635947132,0.025033272590149126,2.864671008503967,0.7424300921688033,0.7415895118049914,0.002474766973896011,False,0.8055,2.220446049250313e-16,3.706620870175014e-23,2.7699240138143757e-08,True,2.998696913032921e-09
volume_optimal_clipped,300000000,3e-05,1,1,1.145915590261646,22.346949469876932,298.84190477229333,22.346949469876932,22.52994533113421,0.07448983156625645,0.07509981777044737,8.5386198842323,2.217143266167684,2.217143266167684,0.00739047755389228,False,0.0,2.220446049250313e-16,8.0184587598203455e-25,7.301814579974815e-08,True,8.9652571431688e-09
volume_optimal_clipped,300000000,0.0001,1,1,3.8197186342054867,69.24304894457354,288.67249776336763,69.24304894457354,75.09981777044739,0.23081016314857852,0.2503327259014913,26.652690422709828,7.138984128654189,7.138984128654189,0.023796613762180632,True,0.0,3.3306690738754696e-16,4.539253560061431e-27,9.20055270484517e-08,True,2.886724977633677e-08
volume_optimal_clipped,1000000000,1e-06,0.5,1,0.0028647889756541144,0.01968022254450214,149.99999840214568,0.0516168935784017,0.019680222920666336,0.00013120148363001427,0.00013120148613777558,0.012198909838432791,0.03709558812107113,0.03709558812107113,3.7095588121071134e-05,False,0.0,2.220446049250313e-16,2.4836097891904656e-22,1.3330064418346016e-10,True,1.4999999840214565e-10
volume_optimal_clipped,1000000000,1e-05,0.5,1,0.02864788975654115,0.1968018473336158,149.99983901561203,0.5161678140324287,0.19680222920666335,0.0013120123155574389,0.0013120148613777558,0.12198890557770337,0.37095548704156023,0.37095548704156023,0.00037095548704156025,False,0.0,2.220446049250313e-16,5.00617008475069e-25,2.575349044818759e-10,True,1.4999983901561205e-09
volume_optimal_clipped,1000000000,3e-05,0.5,1,0.08594366926962345,0.5903963769714642,149.99855117831,1.5484762509796772,0.5904066876199902,0.003935975846476428,0.0039360445841332675,0.365962043126421,1.1128569065081542,1.1128569065081542,0.0011128569065081543,False,0.0,2.220446049250313e-16,2.0379864013242812e-24,7.723058441190524e-10,True,4.4999565353493e-09
volume_optimal_clipped,1000000000,0.0001,0.5,1,0.2864788975654115,1.9676405422348149,149.98390675690516,5.16055689667213,1.968022292066634,0.013117603614898768,0.013120148613777562,1.2196963285611082,3.7091608594068526,3.7091608594068526,0.0037091608594068525,False,0.0,2.220446049250313e-16,1.3712600460189873e-24,2.571093462600998e-09,True,1.4998390675690515e-08
volume_optimal_clipped,1000000000,1e-06,1,1,0.011459155902616458,0.2252992673043169,299.99988253541,0.2252992673043169,0.22529945331134207,0.0007509975576810565,0.0007509981777044736,0.08601036558106395,0.07419518579417192,0.07419114798299958,7.419518579417192e-05,False,0.8055,2.220446049250313e-16,7.208945150226372e-27,8.895686242720554e-10,True,2.9999988253541e-10
volume_optimal_clipped,1000000000,1e-05,1,1,0.1145915590261646,2.25280856445543,299.98825520978636,2.25280856445543,2.252994533113421,0.0075093618815181,0.007509981777044737,0.860040922728387,0.7422443131646868,0.7418827249975374,0.0007422443131646868,False,0.8055,3.3306690738754696e-16,3.680134193349387e-24,8.724372078723163e-09,True,2.999882552097864e-09
volume_optimal_clipped,1000000000,3e-05,1,1,0.3437746770784938,6.753969048312989,299.89441804540917,6.753969048312989,6.758983599340263,0.0225132301610433,0.022529945331134213,2.5786040585775156,2.227362108235107,2.2249519860251588,0.0022273621082351067,False,0.8055,3.885780586188048e-16,6.222670907515363e-23,2.5097835538904246e-08,True,8.996832541362275e-09
volume_optimal_clipped,1000000000,0.0001,1,1,1.145915590261646,22.346949469876932,298.84190477229333,22.346949469876932,22.529945331134215,0.07448983156625645,0.07509981777044739,8.5386198842323,7.390477553892281,7.390477553892281,0.007390477553892281,False,0.0,2.220446049250313e-16,8.0184587598203455e-25,7.301814579974815e-08,True,2.9884190477229333e-08
